"Time (s)","X (µT)","Y (µT)","Z (µT)"
0.000000000E0,-1.754031372E1,-2.391010857E1,4.197359085E1
2.175500000E-2,-1.736721611E1,-2.388062096E1,4.206226730E1
4.354300000E-2,-1.708071136E1,-2.389960480E1,4.216866684E1
6.530000000E-2,-1.687594604E1,-2.390959549E1,4.224538422E1
8.706100000E-2,-1.672801018E1,-2.391827583E1,4.229926682E1
1.088200000E-1,-1.661302757E1,-2.388461113E1,4.236355972E1
1.305760000E-1,-1.651242828E1,-2.385692406E1,4.241845703E1
1.523380000E-1,-1.642889023E1,-2.383347511E1,4.246404648E1
1.740970000E-1,-1.639865685E1,-2.378729630E1,4.250161362E1
1.958560000E-1,-1.633467293E1,-2.377478600E1,4.253323746E1
2.176460000E-1,-1.628582191E1,-2.375551033E1,4.256272888E1
2.394050000E-1,-1.624563980E1,-2.373817635E1,4.258775330E1
2.611390000E-1,-1.624789429E1,-2.366886902E1,4.262545395E1
2.829270000E-1,-1.620667267E1,-2.364648438E1,4.265356445E1
3.046820000E-1,-1.618635368E1,-2.363389206E1,4.266825104E1
3.264410000E-1,-1.615381050E1,-2.358685303E1,4.270658875E1
3.482000000E-1,-1.611959648E1,-2.356365204E1,4.273231888E1
3.699670000E-1,-1.611926651E1,-2.351057053E1,4.276167297E1
3.917250000E-1,-1.608414459E1,-2.350049591E1,4.278043747E1
4.135080000E-1,-1.607278061E1,-2.347930336E1,4.279633331E1
4.352670000E-1,-1.605326080E1,-2.346043396E1,4.281401443E1
4.570240000E-1,-1.603261566E1,-2.344495201E1,4.283021927E1
4.787860000E-1,-1.601095772E1,-2.342271042E1,4.285048676E1
5.005440000E-1,-1.599295521E1,-2.339945030E1,4.286990738E1
5.223030000E-1,-1.597974014E1,-2.337881470E1,4.288609695E1
5.440920000E-1,-1.596810150E1,-2.337208748E1,4.289409637E1
5.658490000E-1,-1.595639706E1,-2.336962128E1,4.289979553E1
5.876110000E-1,-1.594349957E1,-2.335301399E1,4.291363525E1
6.093700000E-1,-1.594711018E1,-2.330508423E1,4.293833923E1
6.311300000E-1,-1.593296719E1,-2.329283142E1,4.295023727E1
6.528880000E-1,-1.592277622E1,-2.328612518E1,4.295764923E1
6.746470000E-1,-1.591820621E1,-2.326902199E1,4.296861267E1
6.964060000E-1,-1.590815067E1,-2.326339722E1,4.297537994E1
7.181950000E-1,-1.590003967E1,-2.323854065E1,4.299182510E1
7.399450000E-1,-1.589076710E1,-2.322771072E1,4.300111008E1
7.616990000E-1,-1.588563919E1,-2.319746590E1,4.301932144E1
7.834720000E-1,-1.588117123E1,-2.317271614E1,4.303430939E1
8.052310000E-1,-1.587819481E1,-2.315259171E1,4.304623795E1
8.269900000E-1,-1.588340664E1,-2.312600327E1,4.305861282E1
8.487490000E-1,-1.587802792E1,-2.312140274E1,4.306306458E1
8.705260000E-1,-1.588049316E1,-2.307509613E1,4.308698273E1
8.922940000E-1,-1.585037422E1,-2.306209755E1,4.310503769E1
9.140570000E-1,-1.583764839E1,-2.305247307E1,4.311486053E1
9.358120000E-1,-1.583220196E1,-2.305128670E1,4.311748886E1
9.575700000E-1,-1.584997845E1,-2.299206924E1,4.314257050E1
9.793310000E-1,-1.585131359E1,-2.296446991E1,4.315677643E1
1.001107000E0,-1.585253429E1,-2.294158745E1,4.316849899E1
1.022852000E0,-1.582234478E1,-2.297038078E1,4.316426086E1
1.044643000E0,-1.580661583E1,-2.297661209E1,4.316670990E1
1.066378000E0,-1.579412174E1,-2.297216797E1,4.317364502E1
1.088160000E0,-1.578065968E1,-2.298908615E1,4.316955948E1
1.109919000E0,-1.577480602E1,-2.298672485E1,4.317295456E1
1.131681000E0,-1.577086067E1,-2.298580360E1,4.317489243E1
1.153437000E0,-1.576082611E1,-2.298507881E1,4.317893982E1
1.175196000E0,-1.576641178E1,-2.294063187E1,4.320052719E1
1.196986000E0,-1.574723911E1,-2.294585419E1,4.320475388E1
1.218745000E0,-1.573669434E1,-2.295315742E1,4.320471954E1
1.240504000E0,-1.572741318E1,-2.295460892E1,4.320732880E1
1.262267000E0,-1.572918797E1,-2.292535973E1,4.322220612E1
1.284031000E0,-1.572448444E1,-2.290920830E1,4.323247528E1
1.305782000E0,-1.572995567E1,-2.287847900E1,4.324676514E1
1.327540000E0,-1.572372437E1,-2.286695862E1,4.325511551E1
1.349329000E0,-1.571509933E1,-2.286658478E1,4.325845337E1
1.371088000E0,-1.572195435E1,-2.283547401E1,4.327238846E1
1.392847000E0,-1.569597816E1,-2.286646080E1,4.326545715E1
1.414606000E0,-1.568726540E1,-2.286437416E1,4.326971817E1
1.436365000E0,-1.567922592E1,-2.286216927E1,4.327379608E1
1.458129000E0,-1.567405510E1,-2.286117744E1,4.327619171E1
1.479883000E0,-1.566587543E1,-2.286942291E1,4.327480316E1
1.501643000E0,-1.567075920E1,-2.283609009E1,4.329062653E1
1.523433000E0,-1.565925789E1,-2.285729980E1,4.328359985E1
1.545191000E0,-1.564975643E1,-2.287461853E1,4.327788925E1
1.566953000E0,-1.563712502E1,-2.288490295E1,4.327701950E1
1.588709000E0,-1.562522984E1,-2.288315010E1,4.328223801E1
1.610468000E0,-1.562917423E1,-2.284632874E1,4.330025482E1
1.632245000E0,-1.561650848E1,-2.284034157E1,4.330798721E1
1.654005000E0,-1.560397625E1,-2.283272171E1,4.331652832E1
1.675776000E0,-1.558913231E1,-2.283410454E1,4.332114029E1
1.697535000E0,-1.557531929E1,-2.285516167E1,4.331499863E1
1.719294000E0,-1.556660938E1,-2.285380363E1,4.331884766E1
1.741053000E0,-1.555847836E1,-2.284892273E1,4.332434464E1
1.763292542E0,-1.557374763E1,-2.279154015E1,4.334908295E1
1.785064542E0,-1.556233978E1,-2.280261612E1,4.334735489E1
1.806823542E0,-1.555105019E1,-2.281356621E1,4.334563446E1
1.828613542E0,-1.555039310E1,-2.279942513E1,4.335331726E1
1.850372542E0,-1.553853607E1,-2.280586624E1,4.335417557E1
1.872125542E0,-1.554334641E1,-2.277412796E1,4.336914062E1
1.893885542E0,-1.552197075E1,-2.280625343E1,4.335990906E1
1.915649542E0,-1.551285744E1,-2.281332016E1,4.335945511E1
1.937408542E0,-1.550295544E1,-2.281849480E1,4.336027527E1
1.959165542E0,-1.548865032E1,-2.284358788E1,4.335216522E1
1.980956542E0,-1.548052979E1,-2.284847069E1,4.335249329E1
2.002715542E0,-1.546882725E1,-2.284803009E1,4.335690689E1
2.024475542E0,-1.546015930E1,-2.285122681E1,4.335831451E1
2.046233542E0,-1.545193481E1,-2.285501480E1,4.335925293E1
2.067992542E0,-1.545905685E1,-2.281728554E1,4.337657547E1
2.089752542E0,-1.545051765E1,-2.282434082E1,4.337590790E1
2.111510542E0,-1.543840027E1,-2.282933426E1,4.337759399E1
2.133281542E0,-1.542736721E1,-2.283153725E1,4.338035583E1
2.155040542E0,-1.542123318E1,-2.281958389E1,4.338883209E1
2.176818542E0,-1.541309166E1,-2.282281303E1,4.339001846E1
2.198577542E0,-1.542145157E1,-2.278632736E1,4.340622711E1
2.220336542E0,-1.540612125E1,-2.279538727E1,4.340691757E1
2.242095542E0,-1.540656471E1,-2.278146172E1,4.341406631E1
2.263851542E0,-1.540965366E1,-2.275305939E1,4.342785645E1
2.285639542E0,-1.538390732E1,-2.279246521E1,4.341632843E1
2.307403542E0,-1.538587093E1,-2.277846336E1,4.342298126E1
2.329163542E0,-1.537391663E1,-2.279511833E1,4.341847229E1
2.350921542E0,-1.536164379E1,-2.280912399E1,4.341545486E1
2.372680542E0,-1.536550045E1,-2.278108025E1,4.342881775E1
2.394453542E0,-1.534990311E1,-2.279722023E1,4.342585754E1
2.416198542E0,-1.532220745E1,-2.283673668E1,4.341487885E1
2.437958542E0,-1.531075668E1,-2.284981346E1,4.341204453E1
2.459744542E0,-1.529879570E1,-2.286002159E1,4.341088104E1
2.481506542E0,-1.527943039E1,-2.288653946E1,4.340373230E1
2.503265542E0,-1.526647091E1,-2.289398193E1,4.340436172E1
2.525015542E0,-1.525585175E1,-2.290288353E1,4.340340042E1
2.546783542E0,-1.524310398E1,-2.290830803E1,4.340501404E1
2.568542542E0,-1.524928665E1,-2.287769508E1,4.341899109E1
2.590301542E0,-1.524175739E1,-2.288021660E1,4.342030716E1
2.612090542E0,-1.522744370E1,-2.288464737E1,4.342298889E1
2.633838542E0,-1.520576382E1,-2.292700005E1,4.340824127E1
2.655603542E0,-1.519680023E1,-2.292927361E1,4.341018677E1
2.677368542E0,-1.518991661E1,-2.292624664E1,4.341419601E1
2.699126542E0,-1.519926357E1,-2.288669395E1,4.343178940E1
2.720885542E0,-1.520076180E1,-2.287087059E1,4.343960190E1
2.742645542E0,-1.519337368E1,-2.287998962E1,4.343738174E1
2.764425542E0,-1.517390060E1,-2.289636803E1,4.343555832E1
2.786194542E0,-1.516424274E1,-2.290326691E1,4.343529129E1
2.807952542E0,-1.515398884E1,-2.291231918E1,4.343409348E1
2.829711542E0,-1.514500618E1,-2.292145920E1,4.343240738E1
2.851482542E0,-1.515114403E1,-2.288738060E1,4.344823074E1
2.873229542E0,-1.513839912E1,-2.290210342E1,4.344492340E1
2.895006542E0,-1.511304283E1,-2.293695641E1,4.343536377E1
2.916778542E0,-1.510316944E1,-2.294241142E1,4.343590927E1
2.938537542E0,-1.509484196E1,-2.294939613E1,4.343511963E1
2.960302542E0,-1.508901691E1,-2.295385742E1,4.343478394E1
2.982055542E0,-1.507766628E1,-2.295808220E1,4.343649292E1
3.003814542E0,-1.508511353E1,-2.292270851E1,4.345258331E1
3.025573542E0,-1.507460976E1,-2.293202209E1,4.345131302E1
3.047332542E0,-1.506231976E1,-2.294150352E1,4.345056915E1
3.069123542E0,-1.505081749E1,-2.295125580E1,4.344940567E1
3.090881542E0,-1.503561783E1,-2.298001671E1,4.343946838E1
3.112640542E0,-1.502280521E1,-2.298195839E1,4.344287491E1
3.134399542E0,-1.501553440E1,-2.298801613E1,4.344218445E1
3.156167542E0,-1.502614498E1,-2.295065308E1,4.345826340E1
3.177917542E0,-1.501765537E1,-2.296082115E1,4.345582962E1
3.199706542E0,-1.500820637E1,-2.297181511E1,4.345328903E1
3.221465542E0,-1.499958801E1,-2.297380066E1,4.345521164E1
3.243224542E0,-1.498462772E1,-2.298798943E1,4.345286560E1
3.264983542E0,-1.499004459E1,-2.295802116E1,4.346683884E1
3.286758542E0,-1.496794891E1,-2.298909378E1,4.345802689E1
3.308501542E0,-1.495881844E1,-2.299432564E1,4.345841217E1
3.330261542E0,-1.494865608E1,-2.299995804E1,4.345892715E1
3.352040542E0,-1.493132877E1,-2.303031921E1,4.344879913E1
3.373809542E0,-1.491961956E1,-2.303881073E1,4.344831848E1
3.395552542E0,-1.491110802E1,-2.304174042E1,4.344968796E1
3.417326542E0,-1.490201759E1,-2.306473160E1,4.344061279E1
3.439086542E0,-1.489336300E1,-2.306550980E1,4.344316101E1
3.460840542E0,-1.489645767E1,-2.304821587E1,4.345127869E1
3.482604542E0,-1.488727188E1,-2.305581093E1,4.345039749E1
3.504394542E0,-1.487778187E1,-2.305565643E1,4.345373535E1
3.526147542E0,-1.487227535E1,-2.305463409E1,4.345616531E1
3.547920542E0,-1.485247707E1,-2.307692337E1,4.345109940E1
3.569671542E0,-1.484451103E1,-2.308185959E1,4.345119476E1
3.591430542E0,-1.483371830E1,-2.308742523E1,4.345193100E1
3.613189542E0,-1.482879734E1,-2.308796501E1,4.345331573E1
3.634948542E0,-1.482551098E1,-2.307149315E1,4.346319199E1
3.656737542E0,-1.482349968E1,-2.305592155E1,4.347213364E1
3.678497542E0,-1.481389046E1,-2.306138992E1,4.347251511E1
3.700256542E0,-1.482005787E1,-2.302891159E1,4.348762894E1
3.722015542E0,-1.481992817E1,-2.301663589E1,4.349416351E1
3.743774542E0,-1.481106186E1,-2.302574158E1,4.349237061E1
3.765541542E0,-1.479826641E1,-2.303975105E1,4.348930740E1
3.787292542E0,-1.479643631E1,-2.303091812E1,4.349460983E1
3.809081542E0,-1.480287933E1,-2.299936295E1,4.350910950E1
3.830840542E0,-1.478920174E1,-2.301478577E1,4.350560379E1
3.852585542E0,-1.476807404E1,-2.305225182E1,4.349293900E1
3.874358542E0,-1.475729084E1,-2.307045174E1,4.348695374E1
3.896130542E0,-1.473455429E1,-2.310173035E1,4.347805405E1
3.917876542E0,-1.472566032E1,-2.310437393E1,4.347966766E1
3.939635542E0,-1.471716309E1,-2.310630417E1,4.348151779E1
3.961405542E0,-1.470797443E1,-2.311208916E1,4.348155212E1
3.983185542E0,-1.470339870E1,-2.311746407E1,4.348023987E1
4.004943542E0,-1.470823860E1,-2.308902359E1,4.349371338E1
4.026713542E0,-1.469349957E1,-2.310941696E1,4.348786163E1
4.048450542E0,-1.467981529E1,-2.311869049E1,4.348755646E1
4.070216542E0,-1.467188072E1,-2.312168694E1,4.348864365E1
4.092010542E0,-1.467293835E1,-2.310014915E1,4.349972534E1
4.113770542E0,-1.466252899E1,-2.310819435E1,4.349897003E1
4.135528542E0,-1.464785099E1,-2.312319756E1,4.349593353E1
4.157295542E0,-1.465436840E1,-2.309298515E1,4.350979614E1
4.179046542E0,-1.463243103E1,-2.312140846E1,4.350207520E1
4.200805542E0,-1.463206196E1,-2.310529327E1,4.351076126E1
4.222565542E0,-1.461934280E1,-2.311796188E1,4.350830841E1
4.244354542E0,-1.460670090E1,-2.313663101E1,4.350263596E1
4.266113542E0,-1.463302612E1,-2.305980873E1,4.353456497E1
4.287877542E0,-1.459915161E1,-2.310988235E1,4.351938629E1
4.309631542E0,-1.458269882E1,-2.312842560E1,4.351504898E1
4.331390542E0,-1.456620598E1,-2.315194321E1,4.350806046E1
4.353170542E0,-1.454185867E1,-2.319460678E1,4.349348450E1
4.374908542E0,-1.452642727E1,-2.321246529E1,4.348910904E1
4.396698542E0,-1.452045250E1,-2.320709991E1,4.349396896E1
4.418456542E0,-1.451038361E1,-2.321532440E1,4.349294281E1
4.440215542E0,-1.450044537E1,-2.321642685E1,4.349567032E1
4.461974542E0,-1.448994827E1,-2.321705818E1,4.349882507E1
4.483733542E0,-1.447651386E1,-2.323722458E1,4.349253464E1
4.505492542E0,-1.446975899E1,-2.323995590E1,4.349332428E1
4.527252542E0,-1.445944214E1,-2.324146271E1,4.349594116E1
4.549042542E0,-1.445572948E1,-2.322595596E1,4.350546646E1
4.570800542E0,-1.445030594E1,-2.322550201E1,4.350750351E1
4.592560542E0,-1.444696903E1,-2.322167206E1,4.351066208E1
4.614319542E0,-1.444992256E1,-2.320236588E1,4.351997375E1
4.636077542E0,-1.444146919E1,-2.320462227E1,4.352158356E1
4.657857542E0,-1.444678879E1,-2.317873955E1,4.353360367E1
4.679626542E0,-1.443217564E1,-2.320123100E1,4.352647018E1
4.701379542E0,-1.442125988E1,-2.321595383E1,4.352223587E1
4.723144542E0,-1.440959263E1,-2.323414421E1,4.351639938E1
4.744893542E0,-1.441621876E1,-2.320492172E1,4.352979279E1
4.766662542E0,-1.440333748E1,-2.322095490E1,4.352550888E1
4.788443542E0,-1.437981319E1,-2.326136398E1,4.351170731E1
4.810180542E0,-1.436889362E1,-2.327786827E1,4.350648499E1
4.831969542E0,-1.435933876E1,-2.329156685E1,4.350231171E1
4.853712542E0,-1.434421539E1,-2.331425476E1,4.349514389E1
4.875488542E0,-1.433765411E1,-2.331640625E1,4.349614716E1
4.897238542E0,-1.433234119E1,-2.331730652E1,4.349742126E1
4.919017542E0,-1.431556320E1,-2.333543587E1,4.349322128E1
4.940765542E0,-1.430933571E1,-2.333681488E1,4.349453735E1
4.962525542E0,-1.430013943E1,-2.334518814E1,4.349306488E1
4.984313542E0,-1.428951359E1,-2.335393524E1,4.349185562E1
5.006072542E0,-1.429718590E1,-2.332309723E1,4.350588226E1
5.027819542E0,-1.428657436E1,-2.333495903E1,4.350300980E1
5.049587542E0,-1.427676964E1,-2.334126282E1,4.350284576E1
5.071349542E0,-1.426818180E1,-2.334381485E1,4.350429535E1
5.093108542E0,-1.427213192E1,-2.330823708E1,4.352207184E1
5.114898542E0,-1.427257442E1,-2.329567909E1,4.352864838E1
5.136657542E0,-1.425914574E1,-2.330259705E1,4.352934647E1
5.158398542E0,-1.425248623E1,-2.329093742E1,4.353776932E1
5.180176542E0,-1.423730278E1,-2.329614258E1,4.353995514E1
5.201935542E0,-1.424313545E1,-2.326307678E1,4.355572128E1
5.223694542E0,-1.423557281E1,-2.327101326E1,4.355395508E1
5.245460542E0,-1.422155571E1,-2.329535675E1,4.354552078E1
5.267242542E0,-1.421100426E1,-2.329819870E1,4.354744339E1
5.288983542E0,-1.419764805E1,-2.330012321E1,4.355077362E1
5.310760542E0,-1.418287849E1,-2.330409622E1,4.355345917E1
5.332520542E0,-1.416874313E1,-2.330821419E1,4.355585098E1
5.354271542E0,-1.416257000E1,-2.331940842E1,4.355187225E1
5.376037542E0,-1.415511799E1,-2.334564590E1,4.354023743E1
5.397826542E0,-1.415705681E1,-2.336201286E1,4.353082275E1
5.419568542E0,-1.414242744E1,-2.340402412E1,4.351300812E1
5.441344542E0,-1.413482666E1,-2.340488625E1,4.351501846E1
5.463104542E0,-1.411911392E1,-2.341187668E1,4.351635361E1
5.484863542E0,-1.410253525E1,-2.341742325E1,4.351874161E1
5.506622542E0,-1.411242294E1,-2.338972282E1,4.353044128E1
5.528381542E0,-1.410830212E1,-2.339531708E1,4.352876663E1
5.550149542E0,-1.410414314E1,-2.339841461E1,4.352844620E1
5.571929542E0,-1.410366821E1,-2.340344048E1,4.352590179E1
5.593688542E0,-1.410937309E1,-2.337367630E1,4.354004288E1
5.615447542E0,-1.408907509E1,-2.340209389E1,4.353134537E1
5.637206542E0,-1.407923889E1,-2.339163971E1,4.354015350E1
5.658967542E0,-1.406667519E1,-2.340245819E1,4.353839111E1
5.680724542E0,-1.405737782E1,-2.340893555E1,4.353792191E1
5.702514542E0,-1.406640530E1,-2.337484169E1,4.355331421E1
5.724273542E0,-1.405321407E1,-2.338441467E1,4.355244064E1
5.746034542E0,-1.403442097E1,-2.341959763E1,4.353958893E1
5.767791542E0,-1.401998138E1,-2.343143845E1,4.353787231E1
5.789565542E0,-1.400171375E1,-2.343991852E1,4.353918839E1
5.811309542E0,-1.398789883E1,-2.344332886E1,4.354179001E1
5.833099542E0,-1.397787666E1,-2.345090294E1,4.354092407E1
5.854842542E0,-1.398682022E1,-2.341936111E1,4.355502701E1
5.876617542E0,-1.397623825E1,-2.343230820E1,4.355146790E1
5.898376542E0,-1.396614456E1,-2.344087029E1,4.355009460E1
5.920135542E0,-1.393582916E1,-2.347198296E1,4.354304886E1
5.941911542E0,-1.392531109E1,-2.348153687E1,4.354126740E1
5.963678542E0,-1.391706562E1,-2.348691559E1,4.354099655E1
5.985442542E0,-1.391850471E1,-2.347189713E1,4.354863739E1
6.007201542E0,-1.391227913E1,-2.347853661E1,4.354704666E1
6.028960542E0,-1.390204430E1,-2.348545456E1,4.354658890E1
6.050710542E0,-1.390995121E1,-2.345095062E1,4.356265640E1
6.072479542E0,-1.389589977E1,-2.344623756E1,4.356967163E1
6.094238542E0,-1.387936687E1,-2.346310806E1,4.356586075E1
6.116027542E0,-1.387919044E1,-2.345221519E1,4.357178116E1
6.137786542E0,-1.386539936E1,-2.346991730E1,4.356663895E1
6.159545542E0,-1.387077332E1,-2.344437599E1,4.357867432E1
6.181308542E0,-1.798062134E1,-2.366688156E1,4.176934814E1
6.203058542E0,-1.796494865E1,-2.367987251E1,4.176872253E1
6.224822542E0,-1.795136452E1,-2.369252396E1,4.176739120E1
6.246603542E0,-1.793577576E1,-2.372239876E1,4.175713348E1
6.268365542E0,-1.792671204E1,-2.373258781E1,4.175523376E1
6.290130542E0,-1.794001579E1,-2.368314934E1,4.177758408E1
6.311889542E0,-1.793013763E1,-2.370184898E1,4.177121353E1
6.333649542E0,-1.791547966E1,-2.371973419E1,4.176735687E1
6.355408542E0,-1.789929390E1,-2.373804474E1,4.176389313E1
6.377167542E0,-1.787954140E1,-2.377029228E1,4.175400925E1
6.398956542E0,-1.787141800E1,-2.377923393E1,4.175239563E1
6.420700542E0,-1.786476898E1,-2.378823471E1,4.175011063E1
6.442468542E0,-1.785945892E1,-2.377594757E1,4.175938416E1
6.464233542E0,-1.785181236E1,-2.378678703E1,4.175648117E1
6.485992542E0,-1.785597610E1,-2.375858307E1,4.177075195E1
6.507751542E0,-1.783958054E1,-2.377644157E1,4.176760101E1
6.529540542E0,-1.782051086E1,-2.381128120E1,4.175588989E1
6.551298542E0,-1.781123352E1,-2.380981827E1,4.176068497E1
6.573058542E0,-1.780055618E1,-2.382842255E1,4.175462341E1
6.594818542E0,-1.780506325E1,-2.380421066E1,4.176651001E1
6.616576542E0,-1.778837967E1,-2.384119606E1,4.175251770E1
6.638355542E0,-1.777933502E1,-2.383775139E1,4.175833893E1
6.660120542E0,-1.776569366E1,-2.385316277E1,4.175534821E1
6.681884542E0,-1.774842834E1,-2.387211418E1,4.175186157E1
6.703643542E0,-1.774992943E1,-2.384710121E1,4.176551437E1
6.725403542E0,-1.773915291E1,-2.385946274E1,4.176301956E1
6.747217000E0,-1.772469330E1,-2.388118362E1,4.175675201E1
6.768959000E0,-1.771974564E1,-2.388290977E1,4.175786209E1
6.790725000E0,-1.771332359E1,-2.388193130E1,4.176114655E1
6.812508000E0,-1.770460701E1,-2.389069748E1,4.175983047E1
6.834267000E0,-1.769213676E1,-2.390702057E1,4.175577927E1
6.856027000E0,-1.769847679E1,-2.387961769E1,4.176876068E1
6.877785000E0,-1.768879700E1,-2.388598251E1,4.176922989E1
6.899544000E0,-1.768000793E1,-2.388811302E1,4.177172852E1
6.921305000E0,-1.766292953E1,-2.392676735E1,4.175682831E1
6.943084000E0,-1.765244675E1,-2.394129181E1,4.175293732E1
6.964851000E0,-1.763906479E1,-2.394943619E1,4.175392151E1
6.986611000E0,-1.764470100E1,-2.391781998E1,4.176966858E1
7.008370000E0,-1.763044739E1,-2.394295120E1,4.176128769E1
7.030129000E0,-1.762296295E1,-2.393762016E1,4.176749420E1
7.051898000E0,-1.761254501E1,-2.395143890E1,4.176396561E1
7.073647000E0,-1.760083961E1,-2.395723915E1,4.176556778E1
7.095436000E0,-1.760479927E1,-2.392317390E1,4.178342438E1
7.117195000E0,-1.759793854E1,-2.393027496E1,4.178224945E1
7.138949000E0,-1.757182312E1,-2.397053909E1,4.177015686E1
7.160713000E0,-1.756023979E1,-2.398469543E1,4.176691055E1
7.182490000E0,-1.754008865E1,-2.401523781E1,4.175782394E1
7.204231000E0,-1.753116226E1,-2.401996231E1,4.175885010E1
7.226021000E0,-1.753165627E1,-2.400444794E1,4.176757050E1
7.247774000E0,-1.752137375E1,-2.401129150E1,4.176794434E1
7.269539000E0,-1.750945854E1,-2.402203369E1,4.176676559E1
7.291298000E0,-1.750332451E1,-2.403122711E1,4.176405334E1
7.313063000E0,-1.748321152E1,-2.405731010E1,4.175745392E1
7.334816000E0,-1.747652245E1,-2.406027031E1,4.175855637E1
7.356575000E0,-1.746507263E1,-2.406436157E1,4.176098633E1
7.378365000E0,-1.745154381E1,-2.408608437E1,4.175411606E1
7.400124000E0,-1.744462013E1,-2.408656693E1,4.175673676E1
7.421881000E0,-1.743995476E1,-2.408607483E1,4.175896454E1
7.443627000E0,-1.743825150E1,-2.406643105E1,4.177099609E1
