"Time (s)","X (µT)","Y (µT)","Z (µT)"
0.000000000E0,2.730609703E1,-2.339399576E0,4.043070984E1
2.178900001E-2,2.730222893E1,-2.316173553E0,4.043466187E1
4.354800000E-2,2.728681183E1,-2.267280579E0,4.044783020E1
6.530700000E-2,2.726959229E1,-2.220127583E0,4.046206284E1
8.706600000E-2,2.725243759E1,-2.176279545E0,4.047599030E1
1.088290000E-1,2.724047470E1,-2.137788296E0,4.048610306E1
1.305850000E-1,2.723479080E1,-2.120482445E0,4.049083328E1
1.523440000E-1,2.721439171E1,-2.054504395E0,4.050795364E1
1.741030000E-1,2.720454025E1,-2.013061047E0,4.051664734E1
1.958610000E-1,2.719531059E1,-1.972318530E0,4.052484131E1
2.176380000E-1,2.718023300E1,-1.931740761E0,4.053691101E1
2.394100000E-1,2.716543961E1,-1.895255566E0,4.054855347E1
2.611690000E-1,2.715216064E1,-1.857928038E0,4.055916977E1
2.829280000E-1,2.713941002E1,-1.816379547E0,4.056958389E1
3.046720000E-1,2.713195419E1,-1.781560898E0,4.057611465E1
3.264450000E-1,2.712803650E1,-1.751533031E0,4.058004379E1
3.482050000E-1,2.711561775E1,-1.717579603E0,4.058979034E1
3.699640000E-1,2.710357285E1,-1.685769081E0,4.059917068E1
3.917230000E-1,2.709356499E1,-1.652211666E0,4.060723114E1
4.134850000E-1,2.708286285E1,-1.619084120E0,4.061569595E1
4.352530000E-1,2.707460022E1,-1.585713863E0,4.062252426E1
4.570310000E-1,2.706849670E1,-1.553082943E0,4.062784958E1
4.787900000E-1,2.705808449E1,-1.519811392E0,4.063604355E1
5.005330000E-1,2.704965591E1,-1.489873648E0,4.064276886E1
5.223080000E-1,2.703997421E1,-1.462227821E0,4.065021515E1
5.440680000E-1,2.703369713E1,-1.435051680E0,4.065534973E1
5.658370000E-1,2.702925491E1,-1.407206297E0,4.065928650E1
5.875850000E-1,2.702136993E1,-1.378359795E0,4.066551590E1
6.093450000E-1,2.701267052E1,-1.351893663E0,4.067217636E1
6.311040000E-1,2.701207924E1,-1.345845461E0,4.067277145E1
6.528620000E-1,2.700309372E1,-1.316692114E0,4.067968750E1
6.746520000E-1,2.699493408E1,-1.289188147E0,4.068598938E1
6.964110000E-1,2.699340630E1,-1.270166159E0,4.068760300E1
7.181520000E-1,2.698762894E1,-1.241243124E0,4.069232941E1
7.399290000E-1,2.698044968E1,-1.206476927E0,4.069812775E1
7.616880000E-1,2.697694016E1,-1.190442801E0,4.070093155E1
7.834470000E-1,2.696162033E1,-1.141546726E0,4.071247864E1
8.052030000E-1,2.695512962E1,-1.116871357E0,4.071746445E1
8.269650000E-1,2.694809532E1,-1.092228413E0,4.072278595E1
8.487240000E-1,2.694281578E1,-1.065298080E0,4.072698593E1
8.704830000E-1,2.693424225E1,-1.041203022E0,4.073328781E1
8.922730000E-1,2.693011475E1,-1.013192415E0,4.073672485E1
9.140320000E-1,2.692505455E1,-9.920797348E-1,4.074058151E1
9.357910000E-1,2.692189789E1,-9.719448090E-1,4.074315643E1
9.575360000E-1,2.692203522E1,-9.601686001E-1,4.074334335E1
9.793090000E-1,2.691811943E1,-9.316794872E-1,4.074659348E1
1.001059000E0,2.691432190E1,-9.078316689E-1,4.074964142E1
1.022828000E0,2.691827774E1,-9.052710533E-1,4.074707794E1
1.044586000E0,2.691418266E1,-8.830852509E-1,4.075027084E1
1.066345000E0,2.690763855E1,-8.603360653E-1,4.075508881E1
1.088135000E0,2.690044785E1,-8.397436142E-1,4.076025009E1
1.109895000E0,2.689640045E1,-8.161287308E-1,4.076341248E1
1.131653000E0,2.689343834E1,-7.938058376E-1,4.076580429E1
1.153412000E0,2.688793755E1,-7.685267925E-1,4.076991653E1
1.175171000E0,2.688739395E1,-7.461726665E-1,4.077069473E1
1.196924000E0,2.688800812E1,-7.361288071E-1,4.077047729E1
1.218689000E0,2.688502884E1,-7.172574997E-1,4.077276993E1
1.240448000E0,2.687565994E1,-6.898176670E-1,4.077941513E1
1.262207000E0,2.995209503E1,-5.084051132E0,4.284789276E1
1.283966000E0,2.995208549E1,-5.066536427E0,4.284997559E1
1.305755000E0,2.995255661E1,-5.045054913E0,4.285217667E1
1.327492000E0,2.995161057E1,-5.032313347E0,4.285434723E1
1.349274000E0,2.985890770E1,-5.518665314E0,4.285916138E1
1.371033000E0,2.978721428E1,-5.833140850E0,4.286740112E1
1.392792000E0,2.986178970E1,-5.897700310E0,4.280664062E1
1.414545000E0,3.040169716E1,-6.946244240E0,4.226587677E1
1.436311000E0,3.167137718E1,-7.330202103E0,4.125662613E1
1.458070000E0,3.491575623E1,-6.634951591E0,3.867538071E1
1.479829000E0,3.997829437E1,-4.923995972E0,3.371063232E1
1.501615000E0,4.518110657E1,-3.151797295E0,2.660172844E1
1.523376000E0,4.823619080E1,-2.487935305E0,2.063970184E1
1.545135000E0,5.090780258E1,-2.743736982E0,1.264059639E1
1.566881000E0,5.208162689E1,-4.474098682E0,5.138492584E0
1.588653000E0,5.207998657E1,-6.644613266E0,-1.562484741E0
1.610412000E0,5.095628357E1,-8.201756477E0,-9.752210617E0
1.632171000E0,4.968894196E1,-8.596041679E0,-1.469811249E1
1.653930000E0,4.732408905E1,-9.004978180E0,-2.093463135E1
1.675690000E0,4.416907501E1,-9.682258606E0,-2.672571564E1
1.697466000E0,3.864491272E1,-1.131476307E1,-3.372631836E1
1.719233000E0,3.251401520E1,-1.338598251E1,-3.902014160E1
1.740998000E0,2.465444946E1,-1.579379272E1,-4.360770035E1
1.762756000E0,1.812389755E1,-1.761589432E1,-4.604478455E1
1.784515000E0,1.025511932E1,-1.976949501E1,-4.757012939E1
1.806289000E0,3.799285889E0,-2.147338676E1,-4.778469086E1
1.828022000E0,-2.737709045E0,-2.229044914E1,-4.748218536E1
1.849792000E0,-7.591999054E0,-2.227115631E1,-4.696035385E1
1.871551000E0,-1.227077103E1,-2.207524300E1,-4.605463028E1
1.893323000E0,-1.588582706E1,-2.210966682E1,-4.491904449E1
1.915100000E0,-1.820383835E1,-2.275400543E1,-4.370117569E1
1.936859000E0,-1.944351006E1,-2.369170570E1,-4.265642548E1
1.958619000E0,-2.030175400E1,-2.477518845E1,-4.162866974E1
1.980377000E0,-2.139239120E1,-2.570996094E1,-4.050038147E1
2.002136000E0,-2.264789772E1,-2.647453499E1,-3.930762100E1
2.023895000E0,-2.346531487E1,-2.705407333E1,-3.842360306E1
2.045654000E0,-2.417648888E1,-2.786178207E1,-3.739165878E1
2.067414000E0,-2.462495422E1,-2.854332161E1,-3.657605362E1
2.089172000E0,-2.510565186E1,-2.895952797E1,-3.591614532E1
2.110961000E0,-2.583879852E1,-2.913156128E1,-3.525090408E1
2.132721000E0,-2.610384750E1,-2.921100616E1,-3.498890686E1
2.154480000E0,-2.631720161E1,-2.936383057E1,-3.469997025E1
2.176240000E0,-2.659550095E1,-2.940957260E1,-3.444813156E1
2.198006000E0,-2.691735268E1,-2.945362473E1,-3.415929794E1
2.219758000E0,-2.731461525E1,-2.947814560E1,-3.382112503E1
2.241516000E0,-2.773628235E1,-2.955004311E1,-3.341274261E1
2.263275000E0,-2.802054024E1,-2.957287598E1,-3.315436554E1
2.285034000E0,-2.844423485E1,-2.945722389E1,-3.289551926E1
2.306806000E0,-2.884897804E1,-2.932493973E1,-3.266040039E1
2.328578000E0,-2.932169724E1,-2.928612518E1,-3.227194214E1
2.350337000E0,-2.954084015E1,-2.926990700E1,-3.208626556E1
2.372096000E0,-2.985958672E1,-2.945698166E1,-3.161659050E1
2.393841000E0,-2.984112740E1,-2.984327507E1,-3.126985168E1
2.415619000E0,-2.970025444E1,-3.022339630E1,-3.103802109E1
2.437398000E0,-2.922790718E1,-3.096438408E1,-3.075473595E1
2.459137000E0,-2.911137390E1,-3.116511536E1,-3.066237450E1
2.480896000E0,-2.914368439E1,-3.117483902E1,-3.062176514E1
2.502668000E0,-2.941406631E1,-3.135853195E1,-3.017238235E1
2.524444000E0,-2.931421280E1,-3.157805634E1,-3.004032326E1
2.546203000E0,-2.939761162E1,-3.170685577E1,-2.982235909E1
2.567962000E0,-2.938043976E1,-3.183959961E1,-2.969760132E1
2.589726000E0,-2.928879356E1,-3.195388412E1,-2.966535378E1
2.611482000E0,-2.931264114E1,-3.206478119E1,-2.952179337E1
2.633240000E0,-2.913905525E1,-3.228980637E1,-2.944828606E1
2.654999000E0,-2.903036880E1,-3.242940521E1,-2.940219498E1
2.676758000E0,-2.875847626E1,-3.261325836E1,-2.946596146E1
2.698547000E0,-2.864972878E1,-3.276388168E1,-2.940474129E1
2.720307000E0,-2.843260384E1,-3.301383209E1,-2.933583832E1
2.742065000E0,-2.834543228E1,-3.319087601E1,-2.922019196E1
2.763824000E0,-2.819433403E1,-3.333224869E1,-2.920544243E1
2.785583000E0,-2.809194565E1,-3.342979050E1,-2.919262695E1
2.807342000E0,-2.800155830E1,-3.348039246E1,-2.922145271E1
2.829101000E0,-2.797204208E1,-3.354397583E1,-2.917678261E1
2.850861000E0,-2.815717125E1,-1.737278366E1,-3.652510452E1
2.872619000E0,-2.806450272E1,-1.756420517E1,-3.650486755E1
2.894398000E0,-2.796827698E1,-1.772331429E1,-3.650181580E1
2.916168000E0,-2.794368744E1,-1.784457779E1,-3.646154404E1
2.937927000E0,-2.785589027E1,-1.791933060E1,-3.649205399E1
2.959686000E0,-2.786594391E1,-1.794005966E1,-3.647418976E1
2.981445000E0,-2.776390457E1,-1.803189468E1,-3.650670242E1
3.003218000E0,-2.774156380E1,-1.807229996E1,-3.650370026E1
3.024963000E0,-2.761563873E1,-1.825498199E1,-3.650828934E1
3.046722000E0,-2.753621292E1,-1.836447144E1,-3.651337051E1
3.068500000E0,-2.737650681E1,-1.851964188E1,-3.655506897E1
3.090257000E0,-2.731982613E1,-1.862090302E1,-3.654602814E1
3.112030000E0,-2.727891159E1,-1.869219208E1,-3.654019928E1
3.133789000E0,-2.731175804E1,-1.868895912E1,-3.651731110E1
3.155548000E0,-2.732610703E1,-1.868495750E1,-3.650862122E1
3.177307000E0,-2.731927490E1,-1.871954727E1,-3.649600983E1
3.199070000E0,-2.732228088E1,-1.872222137E1,-3.649238968E1
3.220825000E0,-2.723442459E1,-1.883787727E1,-3.649853897E1
3.242584000E0,-2.696250725E1,-1.900905228E1,-3.661150360E1
3.264343000E0,-2.683372879E1,-1.890744591E1,-3.675843811E1
3.286111000E0,-2.691979980E1,-1.873304367E1,-3.678479004E1
3.307892000E0,-2.699522781E1,-1.866730881E1,-3.676292038E1
3.329634000E0,-2.689557266E1,-1.873945618E1,-3.679923630E1
3.351410000E0,-2.643393707E1,-2.035160446E1,-3.625503922E1
3.373169000E0,-2.641282082E1,-2.034456635E1,-3.627436829E1
3.394919000E0,-2.650226974E1,-2.025837708E1,-3.625735855E1